c time(ms)      fgas     fh20     fco2     fch4     fco     fother    yh20     yco2     ych4     yco     yother    Xgas
  1.000E-01   0.0000   0.0000   0.0000   0.0000   0.0000   0.0000   0.8166   0.1808   0.0000   0.0000   0.0027   0.0000
  3.000E-01   0.0000   0.0000   0.0000   0.0000   0.0000   0.0000   0.8166   0.1808   0.0000   0.0000   0.0027   0.0000
  7.000E-01   0.0000   0.0000   0.0000   0.0000   0.0000   0.0000   0.8166   0.1808   0.0000   0.0000   0.0027   0.0000
  1.500E+00   0.0000   0.0000   0.0000   0.0000   0.0000   0.0000   0.8166   0.1808   0.0000   0.0000   0.0027   0.0000
  2.500E+00   0.0000   0.0000   0.0000   0.0000   0.0000   0.0000   0.8166   0.1808   0.0000   0.0000   0.0027   0.0000
  3.500E+00   0.0000   0.0000   0.0000   0.0000   0.0000   0.0000   0.8166   0.1808   0.0000   0.0000   0.0027   0.0000
  4.500E+00   0.0000   0.0000   0.0000   0.0000   0.0000   0.0000   0.8166   0.1808   0.0000   0.0000   0.0027   0.0000
  5.500E+00   0.0000   0.0000   0.0000   0.0000   0.0000   0.0000   0.8165   0.1807   0.0000   0.0000   0.0027   0.0001
  6.500E+00   0.0009   0.0007   0.0002   0.0000   0.0000   0.0000   0.8150   0.1804   0.0000   0.0000   0.0045   0.0023
  7.500E+00   0.0047   0.0038   0.0008   0.0000   0.0000   0.0001   0.8081   0.1791   0.0000   0.0000   0.0128   0.0124
  7.874E+00   0.0083   0.0066   0.0015   0.0001   0.0000   0.0002   0.7926   0.1777   0.0084   0.0000   0.0213   0.0224
  8.027E+00   0.0136   0.0102   0.0024   0.0005   0.0000   0.0005   0.7554   0.1757   0.0354   0.0000   0.0335   0.0367
  8.181E+00   0.0181   0.0131   0.0031   0.0011   0.0000   0.0008   0.7230   0.1741   0.0588   0.0000   0.0442   0.0491
  8.334E+00   0.0227   0.0158   0.0038   0.0018   0.0000   0.0012   0.6966   0.1677   0.0808   0.0000   0.0549   0.0619
  8.487E+00   0.0277   0.0189   0.0044   0.0025   0.0000   0.0018   0.6841   0.1605   0.0894   0.0000   0.0659   0.0756
  8.641E+00   0.0300   0.0204   0.0047   0.0028   0.0000   0.0021   0.6780   0.1570   0.0938   0.0000   0.0713   0.0824
  8.710E+00   0.0327   0.0219   0.0050   0.0032   0.0000   0.0025   0.6712   0.1530   0.0986   0.0000   0.0773   0.0899
  8.779E+00   0.0354   0.0235   0.0053   0.0037   0.0000   0.0030   0.6641   0.1489   0.1035   0.0000   0.0835   0.0977
  8.848E+00   0.0382   0.0251   0.0055   0.0042   0.0000   0.0034   0.6568   0.1447   0.1087   0.0000   0.0899   0.1057
  8.917E+00   0.0411   0.0267   0.0058   0.0047   0.0000   0.0040   0.6492   0.1403   0.1140   0.0000   0.0965   0.1140
  8.986E+00   0.0440   0.0282   0.0060   0.0052   0.0000   0.0045   0.6415   0.1358   0.1194   0.0000   0.1033   0.1225
  9.055E+00   0.0469   0.0297   0.0062   0.0059   0.0000   0.0052   0.6335   0.1311   0.1250   0.0000   0.1104   0.1313
  9.124E+00   0.0499   0.0312   0.0063   0.0065   0.0000   0.0059   0.6252   0.1263   0.1308   0.0000   0.1176   0.1403
  9.193E+00   0.0530   0.0326   0.0066   0.0071   0.0000   0.0066   0.6161   0.1250   0.1346   0.0005   0.1238   0.1496
  9.262E+00   0.0561   0.0340   0.0071   0.0077   0.0001   0.0073   0.6062   0.1261   0.1371   0.0012   0.1294   0.1591
  9.331E+00   0.0591   0.0352   0.0075   0.0083   0.0001   0.0080   0.5961   0.1271   0.1396   0.0020   0.1351   0.1687
  9.400E+00   0.0622   0.0364   0.0080   0.0088   0.0002   0.0088   0.5859   0.1283   0.1422   0.0029   0.1408   0.1786
  9.469E+00   0.0652   0.0375   0.0085   0.0094   0.0003   0.0095   0.5747   0.1304   0.1443   0.0045   0.1461   0.1885
  9.538E+00   0.0682   0.0384   0.0090   0.0100   0.0004   0.0103   0.5635   0.1325   0.1465   0.0062   0.1513   0.1985
  9.607E+00   0.0711   0.0393   0.0096   0.0106   0.0006   0.0111   0.5522   0.1347   0.1487   0.0078   0.1566   0.2085
  9.676E+00   0.0739   0.0403   0.0099   0.0112   0.0008   0.0117   0.5457   0.1337   0.1514   0.0104   0.1588   0.2185
  9.745E+00   0.0767   0.0414   0.0101   0.0118   0.0010   0.0123   0.5400   0.1323   0.1541   0.0131   0.1605   0.2285
  9.814E+00   0.0793   0.0424   0.0104   0.0124   0.0013   0.0129   0.5345   0.1308   0.1568   0.0158   0.1621   0.2384
  9.883E+00   0.0818   0.0433   0.0106   0.0130   0.0015   0.0134   0.5289   0.1294   0.1595   0.0185   0.1637   0.2481
  9.952E+00   0.0841   0.0440   0.0108   0.0136   0.0018   0.0139   0.5235   0.1280   0.1621   0.0211   0.1653   0.2577
  1.002E+01   0.0864   0.0448   0.0109   0.0142   0.0020   0.0144   0.5183   0.1267   0.1647   0.0236   0.1668   0.2670
  1.009E+01   0.0884   0.0454   0.0111   0.0148   0.0023   0.0149   0.5131   0.1253   0.1672   0.0261   0.1683   0.2760
  1.016E+01   0.0904   0.0459   0.0112   0.0153   0.0026   0.0153   0.5081   0.1241   0.1696   0.0285   0.1697   0.2848
  1.023E+01   0.0921   0.0464   0.0113   0.0158   0.0028   0.0157   0.5036   0.1229   0.1717   0.0309   0.1708   0.2934
  1.030E+01   0.0938   0.0469   0.0114   0.0163   0.0032   0.0161   0.5000   0.1219   0.1733   0.0336   0.1712   0.3016
  1.037E+01   0.0954   0.0473   0.0115   0.0167   0.0034   0.0164   0.4966   0.1209   0.1748   0.0362   0.1716   0.3095
  1.044E+01   0.0968   0.0477   0.0116   0.0171   0.0037   0.0166   0.4932   0.1200   0.1762   0.0386   0.1719   0.3171
  1.050E+01   0.0981   0.0481   0.0117   0.0174   0.0040   0.0169   0.4900   0.1192   0.1776   0.0410   0.1722   0.3244
  1.057E+01   0.0994   0.0484   0.0118   0.0178   0.0043   0.0172   0.4871   0.1183   0.1788   0.0432   0.1725   0.3315
  1.064E+01   0.1006   0.0488   0.0118   0.0181   0.0045   0.0174   0.4847   0.1177   0.1798   0.0450   0.1728   0.3383
  1.071E+01   0.1018   0.0491   0.0119   0.0184   0.0048   0.0176   0.4825   0.1170   0.1807   0.0468   0.1730   0.3449
  1.078E+01   0.1029   0.0494   0.0120   0.0187   0.0050   0.0178   0.4803   0.1164   0.1816   0.0485   0.1732   0.3514
  1.085E+01   0.1041   0.0498   0.0120   0.0190   0.0052   0.0180   0.4782   0.1157   0.1825   0.0502   0.1734   0.3577
  1.092E+01   0.1052   0.0501   0.0121   0.0193   0.0055   0.0183   0.4760   0.1151   0.1834   0.0518   0.1736   0.3640
  1.099E+01   0.1064   0.0504   0.0122   0.0196   0.0057   0.0185   0.4739   0.1145   0.1843   0.0535   0.1738   0.3702
  1.106E+01   0.1076   0.0508   0.0122   0.0199   0.0059   0.0187   0.4718   0.1139   0.1852   0.0551   0.1741   0.3765
  1.113E+01   0.1088   0.0511   0.0123   0.0203   0.0062   0.0190   0.4696   0.1132   0.1861   0.0568   0.1743   0.3828
  1.119E+01   0.1101   0.0515   0.0124   0.0206   0.0064   0.0192   0.4674   0.1126   0.1870   0.0585   0.1745   0.3892
  1.126E+01   0.1115   0.0519   0.0125   0.0210   0.0067   0.0195   0.4652   0.1119   0.1879   0.0602   0.1747   0.3958
  1.133E+01   0.1130   0.0523   0.0126   0.0213   0.0070   0.0198   0.4629   0.1113   0.1889   0.0620   0.1749   0.4026
  1.140E+01   0.1164   0.0533   0.0128   0.0222   0.0077   0.0204   0.4581   0.1099   0.1909   0.0657   0.1754   0.4165
  1.154E+01   0.1236   0.0557   0.0132   0.0239   0.0090   0.0218   0.4505   0.1068   0.1934   0.0728   0.1764   0.4449
  1.182E+01   0.1394   0.0606   0.0140   0.0277   0.0123   0.0249   0.4348   0.1004   0.1984   0.0879   0.1785   0.5060
  1.237E+01   0.1712   0.0698   0.0160   0.0339   0.0202   0.0314   0.4076   0.0933   0.1982   0.1178   0.1832   0.6279
  1.337E+01   0.2075   0.0805   0.0202   0.0399   0.0284   0.0386   0.3877   0.0972   0.1922   0.1371   0.1858   0.7609
  1.437E+01   0.2398   0.0886   0.0259   0.0414   0.0395   0.0445   0.3693   0.1081   0.1726   0.1645   0.1855   0.8793
  1.537E+01   0.2575   0.0929   0.0294   0.0419   0.0454   0.0478   0.3609   0.1142   0.1627   0.1765   0.1858   0.9441
  1.637E+01   0.2674   0.0945   0.0337   0.0420   0.0477   0.0496   0.3532   0.1260   0.1570   0.1783   0.1855   0.9807
  1.737E+01   0.2709   0.0950   0.0352   0.0420   0.0484   0.0503   0.3507   0.1300   0.1552   0.1785   0.1857   0.9932
  1.837E+01   0.2723   0.0952   0.0359   0.0420   0.0486   0.0506   0.3496   0.1317   0.1544   0.1786   0.1857   0.9986
  1.937E+01   0.2726   0.0952   0.0360   0.0420   0.0487   0.0506   0.3494   0.1320   0.1542   0.1786   0.1858   0.9997
  2.037E+01   0.2727   0.0953   0.0360   0.0420   0.0487   0.0507   0.3493   0.1321   0.1542   0.1786   0.1858   0.9999
  2.137E+01   0.2727   0.0953   0.0360   0.0420   0.0487   0.0507   0.3493   0.1321   0.1542   0.1786   0.1858   0.9999
  2.237E+01   0.2727   0.0953   0.0360   0.0420   0.0487   0.0507   0.3493   0.1321   0.1542   0.1786   0.1858   1.0000
  2.337E+01   0.2727   0.0953   0.0360   0.0420   0.0487   0.0507   0.3493   0.1321   0.1542   0.1786   0.1858   1.0000
  2.437E+01   0.2727   0.0953   0.0360   0.0420   0.0487   0.0507   0.3493   0.1321   0.1542   0.1786   0.1858   1.0000
  2.537E+01   0.2727   0.0953   0.0360   0.0420   0.0487   0.0507   0.3493   0.1321   0.1542   0.1786   0.1858   1.0000
  2.637E+01   0.2727   0.0953   0.0360   0.0420   0.0487   0.0507   0.3493   0.1321   0.1542   0.1786   0.1858   1.0000
  2.737E+01   0.2727   0.0953   0.0360   0.0420   0.0487   0.0507   0.3493   0.1321   0.1542   0.1786   0.1858   1.0000
  2.837E+01   0.2727   0.0953   0.0360   0.0420   0.0487   0.0507   0.3493   0.1321   0.1542   0.1786   0.1858   1.0000
  2.937E+01   0.2727   0.0953   0.0360   0.0420   0.0487   0.0507   0.3493   0.1321   0.1542   0.1786   0.1858   1.0000
  3.037E+01   0.2727   0.0953   0.0360   0.0420   0.0487   0.0507   0.3493   0.1321   0.1542   0.1786   0.1858   1.0000
  3.137E+01   0.2727   0.0953   0.0360   0.0420   0.0487   0.0507   0.3493   0.1321   0.1542   0.1786   0.1858   1.0000
  3.237E+01   0.2727   0.0953   0.0360   0.0420   0.0487   0.0507   0.3493   0.1321   0.1542   0.1786   0.1858   1.0000
  3.337E+01   0.2727   0.0953   0.0360   0.0420   0.0487   0.0507   0.3493   0.1321   0.1542   0.1786   0.1858   1.0000
  3.437E+01   0.2727   0.0953   0.0360   0.0420   0.0487   0.0507   0.3493   0.1321   0.1542   0.1786   0.1858   1.0000
  3.537E+01   0.2727   0.0953   0.0360   0.0420   0.0487   0.0507   0.3493   0.1321   0.1542   0.1786   0.1858   1.0000
  3.637E+01   0.2727   0.0953   0.0360   0.0420   0.0487   0.0507   0.3493   0.1321   0.1542   0.1786   0.1858   1.0000
  3.737E+01   0.2727   0.0953   0.0360   0.0420   0.0487   0.0507   0.3493   0.1321   0.1542   0.1786   0.1858   1.0000
  3.837E+01   0.2727   0.0953   0.0360   0.0420   0.0487   0.0507   0.3493   0.1321   0.1542   0.1786   0.1858   1.0000
  3.937E+01   0.2727   0.0953   0.0360   0.0420   0.0487   0.0507   0.3493   0.1321   0.1542   0.1786   0.1858   1.0000
  4.037E+01   0.2727   0.0953   0.0360   0.0420   0.0487   0.0507   0.3493   0.1321   0.1542   0.1786   0.1858   1.0000
  4.137E+01   0.2727   0.0953   0.0360   0.0420   0.0487   0.0507   0.3493   0.1321   0.1542   0.1786   0.1858   1.0000
  4.237E+01   0.2727   0.0953   0.0360   0.0420   0.0487   0.0507   0.3493   0.1321   0.1542   0.1786   0.1858   1.0000
  4.337E+01   0.2727   0.0953   0.0360   0.0420   0.0487   0.0507   0.3493   0.1321   0.1542   0.1786   0.1858   1.0000
  4.437E+01   0.2727   0.0953   0.0360   0.0420   0.0487   0.0507   0.3493   0.1321   0.1542   0.1786   0.1858   1.0000
  4.537E+01   0.2727   0.0953   0.0360   0.0420   0.0487   0.0507   0.3493   0.1321   0.1542   0.1786   0.1858   1.0000
  4.637E+01   0.2727   0.0953   0.0360   0.0420   0.0487   0.0507   0.3493   0.1321   0.1542   0.1786   0.1858   1.0000
  4.737E+01   0.2727   0.0953   0.0360   0.0420   0.0487   0.0507   0.3493   0.1321   0.1542   0.1786   0.1858   1.0000
  4.837E+01   0.2727   0.0953   0.0360   0.0420   0.0487   0.0507   0.3493   0.1321   0.1542   0.1786   0.1858   1.0000
  4.937E+01   0.2727   0.0953   0.0360   0.0420   0.0487   0.0507   0.3493   0.1321   0.1542   0.1786   0.1858   1.0000
  5.037E+01   0.2727   0.0953   0.0360   0.0420   0.0487   0.0507   0.3493   0.1321   0.1542   0.1786   0.1858   1.0000
  5.137E+01   0.2727   0.0953   0.0360   0.0420   0.0487   0.0507   0.3493   0.1321   0.1542   0.1786   0.1858   1.0000
  5.237E+01   0.2727   0.0953   0.0360   0.0420   0.0487   0.0507   0.3493   0.1321   0.1542   0.1786   0.1858   1.0000
  5.337E+01   0.2727   0.0953   0.0360   0.0420   0.0487   0.0507   0.3493   0.1321   0.1542   0.1786   0.1858   1.0000
  5.437E+01   0.2727   0.0953   0.0360   0.0420   0.0487   0.0507   0.3493   0.1321   0.1542   0.1786   0.1858   1.0000
  5.537E+01   0.2727   0.0953   0.0360   0.0420   0.0487   0.0507   0.3493   0.1321   0.1542   0.1786   0.1858   1.0000
  5.637E+01   0.2727   0.0953   0.0360   0.0420   0.0487   0.0507   0.3493   0.1321   0.1542   0.1786   0.1858   1.0000
  5.737E+01   0.2727   0.0953   0.0360   0.0420   0.0487   0.0507   0.3493   0.1321   0.1542   0.1786   0.1858   1.0000
  5.837E+01   0.2727   0.0953   0.0360   0.0420   0.0487   0.0507   0.3493   0.1321   0.1542   0.1786   0.1858   1.0000
  5.937E+01   0.2727   0.0953   0.0360   0.0420   0.0487   0.0507   0.3493   0.1321   0.1542   0.1786   0.1858   1.0000
