    Time       Temperature    Yields       Rates 
1.000000e-04  3.199000e+02 1.486364e-03 2.444334e-11 
3.000000e-04  3.338000e+02 1.486364e-03 5.542470e-10 
7.000000e-04  3.615000e+02 1.486364e-03 1.766191e-07 
1.500000e-03  4.170000e+02 1.486364e-03 3.420514e-05 
2.500000e-03  4.864000e+02 1.486425e-03 1.959139e-03 
3.500000e-03  5.557000e+02 1.490282e-03 5.272637e-02 
4.500000e-03  6.251000e+02 1.591878e-03 7.119748e-01 
5.500000e-03  6.944000e+02 2.914232e-03 4.588751e+00 
6.500000e-03  7.638000e+02 1.076938e-02 1.679574e+01 
7.500000e-03  8.331000e+02 3.650570e-02 2.954510e+01 
7.874000e-03  8.591000e+02 5.136435e-02 4.239364e+01 
8.027000e-03  8.697000e+02 5.884715e-02 5.220060e+01 
8.181000e-03  8.803000e+02 6.738993e-02 5.889511e+01 
8.334000e-03  8.910000e+02 7.692795e-02 6.584370e+01 
8.487000e-03  9.016000e+02 8.753811e-02 7.281839e+01 
8.641000e-03  9.122000e+02 9.928319e-02 7.771161e+01 
8.710000e-03  9.170000e+02 1.048678e-01 8.250302e+01 
8.779000e-03  9.218000e+02 1.106686e-01 8.561523e+01 
8.848000e-03  9.266000e+02 1.166827e-01 8.867931e+01 
8.917000e-03  9.314000e+02 1.229064e-01 9.168449e+01 
8.986000e-03  9.362000e+02 1.293352e-01 9.456189e+01 
9.055000e-03  9.409000e+02 1.359559e-01 9.730879e+01 
9.124000e-03  9.457000e+02 1.427638e-01 1.000295e+02 
9.193000e-03  9.505000e+02 1.497600e-01 1.027056e+02 
9.262000e-03  9.553000e+02 1.569371e-01 1.052702e+02 
9.331000e-03  9.601000e+02 1.642872e-01 1.077133e+02 
9.400000e-03  9.649000e+02 1.718016e-01 1.100256e+02 
9.469000e-03  9.697000e+02 1.794708e-01 1.121977e+02 
9.538000e-03  9.745000e+02 1.872849e-01 1.141553e+02 
9.607000e-03  9.792000e+02 1.952242e-01 1.159011e+02 
9.676000e-03  9.840000e+02 2.032792e-01 1.175588e+02 
9.745000e-03  9.888000e+02 2.114473e-01 1.191104e+02 
9.814000e-03  9.936000e+02 2.197165e-01 1.204842e+02 
9.883000e-03  9.984000e+02 2.280741e-01 1.215392e+02 
9.952000e-03  1.003000e+03 2.364889e-01 1.224706e+02 
1.002000e-02  1.008000e+03 2.448526e-01 1.236278e+02 
1.009000e-02  1.013000e+03 2.535495e-01 1.246555e+02 
1.016000e-02  1.018000e+03 2.623044e-01 1.246909e+02 
1.023000e-02  1.022000e+03 2.710062e-01 1.239480e+02 
1.030000e-02  1.027000e+03 2.796571e-01 1.237713e+02 
1.037000e-02  1.032000e+03 2.883342e-01 1.240227e+02 
1.044000e-02  1.037000e+03 2.970203e-01 1.238567e+02 
1.050000e-02  1.041000e+03 3.044356e-01 1.232754e+02 
1.057000e-02  1.046000e+03 3.130461e-01 1.227672e+02 
1.064000e-02  1.051000e+03 3.216230e-01 1.221705e+02 
1.071000e-02  1.056000e+03 3.301500e-01 1.213435e+02 
1.078000e-02  1.061000e+03 3.386111e-01 1.196843e+02 
1.085000e-02  1.065000e+03 3.469058e-01 1.173398e+02 
1.092000e-02  1.070000e+03 3.550387e-01 1.155371e+02 
1.099000e-02  1.075000e+03 3.630810e-01 1.141380e+02 
1.106000e-02  1.080000e+03 3.710180e-01 1.125351e+02 
1.113000e-02  1.085000e+03 3.788359e-01 1.107245e+02 
1.119000e-02  1.089000e+03 3.854122e-01 1.084653e+02 
1.126000e-02  1.094000e+03 3.929364e-01 1.064288e+02 
1.133000e-02  1.099000e+03 4.003122e-01 1.042321e+02 
1.140000e-02  1.104000e+03 4.075288e-01 1.001418e+02 
1.154000e-02  1.113000e+03 4.213420e-01 9.289743e+01 
1.182000e-02  1.132000e+03 4.465458e-01 7.953497e+01 
1.237000e-02  1.171000e+03 4.873560e-01 5.437222e+01 
1.337000e-02  1.240000e+03 5.308227e-01 2.927240e+01 
1.437000e-02  1.309000e+03 5.459008e-01 9.498496e+00 
1.537000e-02  1.379000e+03 5.498197e-01 2.244227e+00 
1.637000e-02  1.448000e+03 5.503892e-01 2.948336e-01 
1.737000e-02  1.517000e+03 5.504094e-01 1.007170e-02 
1.837000e-02  1.587000e+03 5.504094e-01 1.104961e-05 
1.937000e-02  1.656000e+03 5.504094e-01 4.329870e-12 
2.037000e-02  1.700000e+03 5.504094e-01 0.000000e+00 
2.137000e-02  1.700000e+03 5.504094e-01 0.000000e+00 
2.237000e-02  1.700000e+03 5.504094e-01 0.000000e+00 
2.337000e-02  1.700000e+03 5.504094e-01 0.000000e+00 
2.437000e-02  1.700000e+03 5.504094e-01 0.000000e+00 
2.537000e-02  1.700000e+03 5.504094e-01 0.000000e+00 
2.637000e-02  1.700000e+03 5.504094e-01 0.000000e+00 
2.737000e-02  1.700000e+03 5.504094e-01 0.000000e+00 
2.837000e-02  1.700000e+03 5.504094e-01 0.000000e+00 
2.937000e-02  1.700000e+03 5.504094e-01 0.000000e+00 
3.037000e-02  1.700000e+03 5.504094e-01 0.000000e+00 
3.137000e-02  1.700000e+03 5.504094e-01 0.000000e+00 
3.237000e-02  1.700000e+03 5.504094e-01 0.000000e+00 
3.337000e-02  1.700000e+03 5.504094e-01 0.000000e+00 
3.437000e-02  1.700000e+03 5.504094e-01 0.000000e+00 
3.537000e-02  1.700000e+03 5.504094e-01 0.000000e+00 
3.637000e-02  1.700000e+03 5.504094e-01 0.000000e+00 
3.737000e-02  1.700000e+03 5.504094e-01 0.000000e+00 
3.837000e-02  1.700000e+03 5.504094e-01 0.000000e+00 
3.937000e-02  1.700000e+03 5.504094e-01 0.000000e+00 
4.037000e-02  1.700000e+03 5.504094e-01 0.000000e+00 
4.137000e-02  1.700000e+03 5.504094e-01 0.000000e+00 
4.237000e-02  1.700000e+03 5.504094e-01 0.000000e+00 
4.337000e-02  1.700000e+03 5.504094e-01 0.000000e+00 
4.437000e-02  1.700000e+03 5.504094e-01 0.000000e+00 
4.537000e-02  1.700000e+03 5.504094e-01 0.000000e+00 
4.637000e-02  1.700000e+03 5.504094e-01 0.000000e+00 
4.737000e-02  1.700000e+03 5.504094e-01 0.000000e+00 
4.837000e-02  1.700000e+03 5.504094e-01 0.000000e+00 
4.937000e-02  1.700000e+03 5.504094e-01 0.000000e+00 
5.037000e-02  1.700000e+03 5.504094e-01 0.000000e+00 
5.137000e-02  1.700000e+03 5.504094e-01 0.000000e+00 
5.237000e-02  1.700000e+03 5.504094e-01 0.000000e+00 
5.337000e-02  1.700000e+03 5.504094e-01 0.000000e+00 
5.437000e-02  1.700000e+03 5.504094e-01 0.000000e+00 
5.537000e-02  1.700000e+03 5.504094e-01 0.000000e+00 
5.637000e-02  1.700000e+03 5.504094e-01 0.000000e+00 
5.737000e-02  1.700000e+03 5.504094e-01 0.000000e+00 
5.837000e-02  1.700000e+03 5.504094e-01 0.000000e+00 
5.937000e-02  1.700000e+03 5.504094e-01 0.000000e+00 
